time(s),mem(%)
0,0.17
1,0.35
2,0.45
3,0.51
4,0.57
5,0.58
6,0.58
7,0.58
8,0.58
9,0.58
10,0.58
11,0.58
12,0.58
13,0.58
14,0.58
15,0.58
16,0.58
17,0.58
18,0.58
19,0.58
20,0.58
21,0.58
22,0.58
23,0.58
24,0.58
25,0.58
26,0.58
27,0.58
28,0.58
29,0.58
30,0.59
31,0.59
32,0.60
33,0.60
34,0.60
35,0.60
36,0.60
37,0.60
38,0.60
39,0.60
40,0.60
41,0.60
42,0.60
43,0.60
44,0.60
45,0.60
46,0.60
47,0.60
48,0.60
49,0.60
50,0.60
51,0.60
52,0.60
53,0.60
54,0.60
55,0.60
56,0.60
57,0.60
58,0.60
59,0.60
60,0.60
61,0.60
62,0.60
63,0.60
64,0.60
65,0.60
66,0.60
67,0.60
68,0.60
69,0.60
70,0.60
71,0.60
72,0.60
73,0.60
74,0.60
75,0.60
76,0.60
77,0.60
78,0.60
79,0.60
80,0.60
81,0.60
82,0.60
83,0.60
84,0.60
85,0.60
86,0.60
87,0.60
88,0.60
89,0.60
90,0.60
91,0.60
92,0.60
93,0.60
94,0.60
95,0.60
96,0.60
97,0.60
98,0.60
99,0.60
100,0.60
101,0.60
102,0.60
103,0.60
104,0.60
105,0.60
106,0.60
107,0.60
108,0.60
109,0.60
110,0.60
111,0.60
112,0.60
113,0.60
114,0.60
115,0.60
116,0.60
117,0.60
118,0.60
119,0.60
120,0.60
121,0.60
122,0.60
123,0.60
124,0.60
125,0.60
126,0.60
127,0.60
128,0.60
129,0.60
130,0.60
131,0.60
132,0.60
133,0.60
134,0.60
135,0.60
136,0.60
137,0.60
138,0.60
139,0.60
140,0.60
141,0.60
142,0.60
143,0.60
144,0.60
145,0.60
146,0.60
147,0.60
148,0.60
149,0.60
150,0.60
151,0.61
152,0.61
153,0.61
154,0.61
155,0.61
156,0.61
157,0.61
158,0.61
159,0.61
160,0.61
161,0.61
162,0.61
163,0.61
164,0.61
165,0.61
166,0.61
167,0.61
168,0.61
169,0.61
170,0.61
171,0.61
172,0.61
173,0.61
174,0.61
175,0.61
176,0.61
177,0.61
178,0.61
179,0.61
180,0.61
181,0.61
182,0.61
183,0.59
184,0.59
185,0.59
186,0.59
187,0.59
188,0.59
189,0.59
190,0.59
191,0.59
192,0.59
193,0.59
194,0.59
195,0.59
196,0.59
197,0.59
198,0.59
199,0.59
200,0.59
201,0.59
202,0.59
203,0.59
204,0.59
205,0.59
206,0.59
207,0.59
208,0.59
209,0.59
210,0.60
211,0.60
212,0.60
213,0.60
214,0.60
215,0.60
216,0.60
217,0.60
218,0.60
219,0.60
220,0.60
221,0.60
222,0.60
223,0.60
224,0.60
225,0.60
226,0.60
227,0.60
228,0.60
229,0.60
230,0.60
231,0.60
232,0.60
233,0.60
234,0.60
235,0.60
236,0.60
237,0.60
238,0.60
239,0.60
240,0.60
241,0.60
242,0.60
243,0.60
244,0.60
245,0.60
246,0.60
247,0.60
248,0.60
249,0.60
250,0.60
251,0.60
252,0.60
253,0.60
254,0.60
255,0.60
256,0.60
257,0.60
258,0.60
259,0.60
260,0.60
261,0.60
262,0.60
263,0.60
264,0.60
265,0.60
266,0.60
267,0.60
268,0.60
269,0.60
270,0.61
271,0.61
272,0.61
273,0.59
274,0.59
275,0.59
276,0.59
277,0.59
278,0.59
279,0.59
280,0.59
281,0.59
282,0.59
283,0.59
284,0.59
285,0.59
286,0.59
287,0.59
288,0.59
289,0.59
290,0.59
291,0.59
292,0.59
293,0.59
294,0.59
295,0.59
296,0.59
297,0.59
298,0.59
299,0.59
300,0.60
301,0.59
302,0.60
303,0.59
304,0.60
305,0.59
306,0.59
307,0.59
308,0.59
309,0.59
310,0.59
311,0.59
312,0.59
313,0.59
314,0.59
315,0.59
316,0.59
317,0.59
318,0.59
319,0.59
320,0.59
321,0.59
322,0.59
323,0.59
324,0.59
325,0.59
326,0.59
327,0.59
328,0.59
329,0.59
330,0.60
331,0.61
332,0.61
333,0.61
334,0.61
335,0.61
336,0.61
337,0.61
338,0.61
339,0.61
340,0.61
341,0.61
342,0.61
343,0.61
344,0.61
345,0.61
346,0.61
347,0.61
348,0.61
349,0.61
350,0.61
351,0.61
352,0.61
353,0.61
354,0.61
355,0.61
356,0.61
357,0.61
358,0.61
359,0.61
360,0.61
361,0.61
362,0.61
363,0.61
364,0.61
365,0.61
366,0.61
367,0.61
368,0.61
369,0.61
370,0.61
371,0.61
372,0.61
373,0.61
374,0.61
375,0.61
376,0.61
377,0.61
378,0.61
379,0.61
380,0.61
381,0.61
382,0.61
383,0.61
384,0.61
385,0.61
386,0.61
387,0.61
388,0.61
389,0.61
390,0.61
391,0.61
392,0.61
393,0.61
394,0.61
395,0.61
396,0.61
397,0.61
398,0.61
399,0.61
400,0.61
401,0.61
402,0.61
403,0.61
404,0.61
405,0.61
406,0.61
407,0.61
408,0.61
409,0.61
410,0.61
411,0.61
412,0.61
413,0.61
414,0.61
415,0.61
416,0.61
417,0.61
418,0.61
419,0.61
420,0.61
421,0.61
422,0.62
423,0.61
424,0.61
425,0.61
426,0.61
427,0.61
428,0.61
429,0.61
430,0.61
431,0.61
432,0.61
433,0.61
434,0.61
435,0.61
436,0.61
437,0.61
438,0.61
439,0.61
440,0.61
441,0.61
442,0.61
443,0.61
444,0.61
445,0.61
446,0.61
447,0.61
448,0.61
449,0.61
450,0.62
451,0.62
452,0.62
453,0.62
454,0.62
455,0.62
456,0.62
457,0.62
458,0.62
459,0.62
460,0.62
461,0.62
462,0.62
463,0.62
464,0.62
465,0.62
466,0.62
467,0.62
468,0.62
469,0.62
470,0.62
471,0.62
472,0.62
473,0.62
474,0.62
475,0.62
476,0.62
477,0.62
478,0.62
479,0.62
480,0.61
481,0.61
482,0.61
483,0.61
484,0.61
485,0.61
486,0.61
487,0.61
488,0.61
489,0.61
490,0.61
491,0.61
492,0.61
493,0.61
494,0.61
495,0.61
496,0.61
497,0.61
498,0.61
499,0.61
500,0.61
501,0.61
502,0.61
503,0.61
504,0.61
505,0.61
506,0.61
507,0.61
508,0.61
509,0.61
510,0.62
511,0.61
512,0.61
513,0.61
514,0.61
515,0.61
516,0.61
517,0.61
518,0.61
519,0.61
520,0.61
521,0.61
522,0.61
523,0.61
524,0.61
525,0.61
526,0.61
527,0.61
528,0.61
529,0.61
530,0.61
531,0.61
532,0.61
533,0.61
534,0.61
535,0.61
536,0.61
537,0.61
538,0.61
539,0.61
540,0.62
541,0.61
542,0.61
543,0.61
544,0.61
545,0.61
546,0.61
547,0.61
548,0.61
549,0.61
550,0.61
551,0.61
552,0.61
553,0.61
554,0.61
555,0.61
556,0.61
557,0.61
558,0.61
559,0.61
560,0.61
561,0.61
562,0.61
563,0.61
564,0.61
565,0.61
566,0.61
567,0.61
568,0.61
569,0.61
570,0.62
571,0.62
572,0.63
573,0.62
574,0.62
575,0.62
576,0.62
577,0.62
578,0.62
579,0.62
580,0.62
581,0.62
582,0.62
583,0.62
584,0.62
585,0.62
586,0.62
587,0.62
588,0.62
589,0.62
590,0.62
591,0.62
592,0.62
593,0.62
594,0.62
595,0.62
596,0.62
597,0.62
598,0.62
599,0.62
600,0.62
601,0.62
602,0.63
603,0.62
604,0.62
605,0.62
606,0.62
607,0.62
608,0.62
609,0.62
610,0.62
611,0.62
612,0.62
613,0.62
614,0.62
615,0.62
616,0.62
617,0.62
618,0.62
619,0.62
620,0.62
621,0.62
622,0.62
623,0.62
624,0.62
625,0.62
626,0.62
627,0.62
628,0.62
629,0.62
630,0.61
631,0.62
632,0.62
633,0.62
634,0.61
635,0.61
636,0.61
637,0.61
638,0.61
639,0.61
640,0.61
641,0.61
642,0.61
643,0.61
644,0.61
645,0.61
646,0.61
647,0.61
648,0.61
649,0.61
650,0.61
651,0.61
652,0.61
653,0.61
654,0.61
655,0.61
656,0.61
657,0.61
658,0.61
659,0.61
660,0.62
661,0.62
662,0.62
663,0.62
664,0.62
665,0.62
666,0.62
667,0.62
668,0.62
669,0.62
670,0.62
671,0.62
672,0.62
673,0.62
674,0.62
675,0.62
676,0.62
677,0.62
678,0.62
679,0.62
680,0.62
681,0.62
682,0.62
683,0.62
684,0.62
685,0.62
686,0.62
687,0.62
688,0.62
689,0.62
690,0.63
691,0.63
692,0.62
693,0.62
694,0.62
695,0.62
696,0.63
697,0.61
698,0.61
699,0.61
700,0.61
701,0.61
702,0.61
703,0.61
704,0.61
705,0.61
706,0.61
707,0.61
708,0.61
709,0.61
710,0.61
711,0.61
712,0.61
713,0.61
714,0.61
715,0.61
716,0.61
717,0.61
718,0.61
719,0.61
720,0.62
721,0.62
722,0.61
723,0.61
724,0.61
725,0.61
726,0.61
727,0.61
728,0.61
729,0.61
730,0.61
731,0.61
732,0.61
733,0.61
734,0.61
735,0.61
736,0.61
737,0.61
738,0.61
739,0.61
740,0.61
741,0.61
742,0.61
743,0.61
744,0.61
745,0.61
746,0.61
747,0.61
748,0.61
749,0.61
750,0.62
751,0.61
752,0.62
753,0.62
754,0.62
755,0.62
756,0.62
757,0.62
758,0.62
759,0.62
760,0.62
761,0.62
762,0.62
763,0.62
764,0.62
765,0.62
766,0.62
767,0.62
768,0.62
769,0.62
770,0.62
771,0.62
772,0.62
773,0.62
774,0.62
775,0.62
776,0.62
777,0.62
778,0.62
779,0.62
780,0.62
781,0.62
782,0.62
783,0.62
784,0.62
785,0.62
786,0.62
787,0.62
788,0.62
789,0.62
790,0.62
791,0.62
792,0.62
793,0.62
794,0.62
795,0.62
796,0.62
797,0.62
798,0.62
799,0.62
800,0.62
801,0.62
802,0.62
803,0.62
804,0.62
805,0.62
806,0.62
807,0.62
808,0.62
809,0.62
810,0.62
811,0.62
812,0.62
813,0.62
814,0.63
815,0.61
816,0.62
817,0.62
818,0.62
819,0.62
820,0.62
821,0.62
822,0.62
823,0.62
824,0.62
825,0.62
826,0.62
827,0.62
828,0.62
829,0.62
830,0.62
831,0.62
832,0.62
833,0.62
834,0.62
835,0.62
836,0.62
837,0.62
838,0.62
839,0.62
840,0.61
841,0.62
842,0.61
843,0.61
844,0.61
845,0.61
846,0.61
847,0.61
848,0.61
849,0.61
850,0.61
851,0.61
852,0.61
853,0.61
854,0.61
855,0.61
856,0.61
857,0.61
858,0.61
859,0.61
860,0.61
861,0.61
862,0.61
863,0.61
864,0.61
865,0.61
866,0.61
867,0.61
868,0.61
869,0.61
870,0.62
871,0.62
872,0.61
873,0.61
874,0.61
875,0.61
876,0.61
877,0.61
878,0.61
879,0.61
880,0.61
881,0.61
882,0.61
883,0.61
884,0.61
885,0.61
886,0.61
887,0.61
888,0.61
889,0.61
890,0.61
891,0.61
892,0.61
893,0.61
894,0.61
895,0.61
896,0.61
897,0.61
898,0.61
899,0.61
900,0.61
901,0.61
902,0.61
903,0.61
904,0.62
905,0.61
906,0.61
907,0.61
908,0.61
909,0.61
910,0.61
911,0.61
912,0.61
913,0.61
914,0.61
915,0.61
916,0.61
917,0.61
918,0.61
919,0.61
920,0.61
921,0.61
922,0.61
923,0.61
924,0.61
925,0.61
926,0.61
927,0.61
928,0.61
929,0.61
930,0.61
931,0.62
932,0.61
933,0.61
934,0.61
935,0.61
936,0.61
937,0.61
938,0.00
