time(s),mem(%)
0,0.20
1,0.36
2,0.45
3,0.51
4,0.57
5,0.59
6,0.59
7,0.59
8,0.61
9,0.61
10,0.61
11,0.61
12,0.61
13,0.61
14,0.61
15,0.61
16,0.61
17,0.61
18,0.61
19,0.61
20,0.61
21,0.61
22,0.61
23,0.61
24,0.61
25,0.61
26,0.61
27,0.61
28,0.61
29,0.61
30,0.61
31,0.61
32,0.61
33,0.61
34,0.61
35,0.61
36,0.61
37,0.61
38,0.60
39,0.60
40,0.62
41,0.60
42,0.60
43,0.60
44,0.60
45,0.61
46,0.61
47,0.61
48,0.61
49,0.61
50,0.61
51,0.61
52,0.61
53,0.61
54,0.61
55,0.61
56,0.61
57,0.61
58,0.61
59,0.61
60,0.61
61,0.61
62,0.61
63,0.61
64,0.61
65,0.61
66,0.61
67,0.61
68,0.60
69,0.60
70,0.60
71,0.62
72,0.60
73,0.60
74,0.60
75,0.60
76,0.60
77,0.60
78,0.60
79,0.60
80,0.60
81,0.60
82,0.60
83,0.60
84,0.60
85,0.60
86,0.60
87,0.60
88,0.60
89,0.60
90,0.60
91,0.60
92,0.60
93,0.60
94,0.60
95,0.60
96,0.60
97,0.60
98,0.60
99,0.60
100,0.60
101,0.60
102,0.60
103,0.60
104,0.60
105,0.60
106,0.60
107,0.60
108,0.60
109,0.60
110,0.60
111,0.60
112,0.60
113,0.60
114,0.60
115,0.60
116,0.60
117,0.60
118,0.60
119,0.60
120,0.60
121,0.60
122,0.60
123,0.60
124,0.60
125,0.60
126,0.60
127,0.60
128,0.62
129,0.62
130,0.62
131,0.63
132,0.62
133,0.62
134,0.63
135,0.62
136,0.64
137,0.62
138,0.62
139,0.62
140,0.62
141,0.62
142,0.62
143,0.62
144,0.62
145,0.62
146,0.62
147,0.62
148,0.62
149,0.62
150,0.62
151,0.62
152,0.62
153,0.62
154,0.62
155,0.62
156,0.62
157,0.62
158,0.62
159,0.61
160,0.61
161,0.61
162,0.61
163,0.61
164,0.61
165,0.61
166,0.61
167,0.61
168,0.61
169,0.61
170,0.61
171,0.61
172,0.61
173,0.61
174,0.61
175,0.61
176,0.61
177,0.61
178,0.61
179,0.61
180,0.61
181,0.61
182,0.61
183,0.61
184,0.61
185,0.61
186,0.61
187,0.61
188,0.63
189,0.61
190,0.62
191,0.63
192,0.62
193,0.62
194,0.62
195,0.62
196,0.62
197,0.62
198,0.62
199,0.62
200,0.62
201,0.62
202,0.62
203,0.62
204,0.62
205,0.62
206,0.62
207,0.62
208,0.62
209,0.62
210,0.62
211,0.62
212,0.62
213,0.62
214,0.62
215,0.62
216,0.62
217,0.62
218,0.63
219,0.63
220,0.62
221,0.63
222,0.63
223,0.62
224,0.63
225,0.62
226,0.62
227,0.62
228,0.62
229,0.62
230,0.62
231,0.62
232,0.62
233,0.62
234,0.62
235,0.62
236,0.62
237,0.62
238,0.62
239,0.62
240,0.62
241,0.62
242,0.62
243,0.62
244,0.62
245,0.62
246,0.62
247,0.62
248,0.61
249,0.61
250,0.62
251,0.61
252,0.61
253,0.61
254,0.61
255,0.61
256,0.61
257,0.61
258,0.61
259,0.61
260,0.61
261,0.61
262,0.61
263,0.61
264,0.61
265,0.61
266,0.61
267,0.61
268,0.61
269,0.61
270,0.61
271,0.61
272,0.61
273,0.61
274,0.61
275,0.61
276,0.61
277,0.61
278,0.62
279,0.62
280,0.63
281,0.62
282,0.63
283,0.62
284,0.62
285,0.62
286,0.62
287,0.62
288,0.62
289,0.62
290,0.62
291,0.62
292,0.62
293,0.62
294,0.62
295,0.62
296,0.62
297,0.62
298,0.62
299,0.62
300,0.62
301,0.62
302,0.62
303,0.62
304,0.62
305,0.62
306,0.62
307,0.62
308,0.62
309,0.62
310,0.62
311,0.63
312,0.63
313,0.61
314,0.62
315,0.62
316,0.62
317,0.62
318,0.62
319,0.62
320,0.62
321,0.62
322,0.62
323,0.62
324,0.62
325,0.62
326,0.62
327,0.62
328,0.62
329,0.62
330,0.62
331,0.62
332,0.62
333,0.62
334,0.62
335,0.62
336,0.62
337,0.62
338,0.63
339,0.62
340,0.62
341,0.62
342,0.62
343,0.63
344,0.62
345,0.62
346,0.62
347,0.62
348,0.62
349,0.62
350,0.62
351,0.62
352,0.62
353,0.62
354,0.62
355,0.62
356,0.62
357,0.62
358,0.62
359,0.62
360,0.62
361,0.62
362,0.62
363,0.62
364,0.62
365,0.62
366,0.62
367,0.62
368,0.62
369,0.61
370,0.62
371,0.61
372,0.61
373,0.61
374,0.61
375,0.61
376,0.61
377,0.61
378,0.61
379,0.61
380,0.61
381,0.61
382,0.61
383,0.61
384,0.61
385,0.61
386,0.61
387,0.61
388,0.61
389,0.61
390,0.61
391,0.61
392,0.61
393,0.61
394,0.61
395,0.61
396,0.61
397,0.61
398,0.61
399,0.61
400,0.62
401,0.61
402,0.61
403,0.61
404,0.61
405,0.61
406,0.61
407,0.61
408,0.61
409,0.61
410,0.61
411,0.61
412,0.61
413,0.61
414,0.61
415,0.61
416,0.61
417,0.61
418,0.61
419,0.61
420,0.61
421,0.61
422,0.61
423,0.61
424,0.61
425,0.61
426,0.61
427,0.61
428,0.62
429,0.62
430,0.62
431,0.62
432,0.62
433,0.62
434,0.62
435,0.62
436,0.62
437,0.62
438,0.62
439,0.62
440,0.62
441,0.62
442,0.62
443,0.62
444,0.62
445,0.62
446,0.62
447,0.62
448,0.62
449,0.62
450,0.62
451,0.62
452,0.62
453,0.62
454,0.62
455,0.62
456,0.62
457,0.62
458,0.62
459,0.62
460,0.63
461,0.62
462,0.62
463,0.62
464,0.62
465,0.62
466,0.62
467,0.62
468,0.62
469,0.62
470,0.62
471,0.62
472,0.62
473,0.62
474,0.62
475,0.62
476,0.62
477,0.62
478,0.62
479,0.62
480,0.62
481,0.62
482,0.62
483,0.62
484,0.62
485,0.62
486,0.62
487,0.62
488,0.63
489,0.64
490,0.63
491,0.63
492,0.64
493,0.64
494,0.63
495,0.63
496,0.63
497,0.63
498,0.63
499,0.63
500,0.63
501,0.63
502,0.63
503,0.63
504,0.63
505,0.63
506,0.63
507,0.63
508,0.63
509,0.63
510,0.63
511,0.63
512,0.63
513,0.63
514,0.63
515,0.63
516,0.63
517,0.63
518,0.63
519,0.63
520,0.64
521,0.63
522,0.64
523,0.63
524,0.63
525,0.63
526,0.63
527,0.63
528,0.63
529,0.63
530,0.63
531,0.63
532,0.63
533,0.63
534,0.63
535,0.63
536,0.63
537,0.63
538,0.63
539,0.63
540,0.63
541,0.63
542,0.63
543,0.63
544,0.63
545,0.63
546,0.63
547,0.63
548,0.64
549,0.64
550,0.63
551,0.63
552,0.63
553,0.63
554,0.63
555,0.63
556,0.63
557,0.63
558,0.63
559,0.63
560,0.63
561,0.63
562,0.63
563,0.63
564,0.63
565,0.63
566,0.63
567,0.63
568,0.63
569,0.63
570,0.63
571,0.63
572,0.63
573,0.63
574,0.63
575,0.63
576,0.63
577,0.63
578,0.63
579,0.63
580,0.63
581,0.63
582,0.64
583,0.64
584,0.63
585,0.63
586,0.63
587,0.63
588,0.63
589,0.63
590,0.63
591,0.63
592,0.63
593,0.63
594,0.63
595,0.63
596,0.63
597,0.63
598,0.63
599,0.63
600,0.63
601,0.63
602,0.63
603,0.63
604,0.63
605,0.63
606,0.63
607,0.63
608,0.62
609,0.63
610,0.62
611,0.62
612,0.62
613,0.62
614,0.62
615,0.62
616,0.62
617,0.62
618,0.62
619,0.62
620,0.62
621,0.62
622,0.62
623,0.62
624,0.62
625,0.62
626,0.62
627,0.62
628,0.62
629,0.62
630,0.62
631,0.62
632,0.62
633,0.62
634,0.62
635,0.62
636,0.62
637,0.62
638,0.63
639,0.62
640,0.62
641,0.62
642,0.62
643,0.62
644,0.62
645,0.62
646,0.62
647,0.62
648,0.62
649,0.62
650,0.62
651,0.62
652,0.62
653,0.62
654,0.62
655,0.62
656,0.62
657,0.62
658,0.62
659,0.62
660,0.62
661,0.62
662,0.62
663,0.62
664,0.62
665,0.62
666,0.62
667,0.62
668,0.62
669,0.62
670,0.63
671,0.62
672,0.62
673,0.62
674,0.62
675,0.62
676,0.62
677,0.62
678,0.62
679,0.62
680,0.62
681,0.62
682,0.62
683,0.62
684,0.62
685,0.62
686,0.62
687,0.62
688,0.62
689,0.62
690,0.62
691,0.62
692,0.62
693,0.62
694,0.62
695,0.62
696,0.62
697,0.62
698,0.62
699,0.62
700,0.62
701,0.62
702,0.62
703,0.63
704,0.62
705,0.62
706,0.62
707,0.62
708,0.62
709,0.62
710,0.62
711,0.62
712,0.62
713,0.62
714,0.62
715,0.62
716,0.62
717,0.62
718,0.62
719,0.62
720,0.62
721,0.62
722,0.62
723,0.62
724,0.62
725,0.62
726,0.62
727,0.62
728,0.63
729,0.62
730,0.63
731,0.62
732,0.62
733,0.62
734,0.62
735,0.62
736,0.62
737,0.62
738,0.62
739,0.62
740,0.62
741,0.62
742,0.62
743,0.62
744,0.62
745,0.62
746,0.62
747,0.62
748,0.62
749,0.62
750,0.62
751,0.62
752,0.62
753,0.62
754,0.62
755,0.62
756,0.62
757,0.62
758,0.62
759,0.62
760,0.62
761,0.62
762,0.62
763,0.62
764,0.62
765,0.62
766,0.62
767,0.62
768,0.62
769,0.62
770,0.62
771,0.62
772,0.62
773,0.62
774,0.62
775,0.62
776,0.62
777,0.62
778,0.62
779,0.62
780,0.62
781,0.62
782,0.62
783,0.62
784,0.62
785,0.62
786,0.62
787,0.62
788,0.62
789,0.62
790,0.63
791,0.63
792,0.63
793,0.62
794,0.62
795,0.62
796,0.62
797,0.62
798,0.62
799,0.62
800,0.62
801,0.62
802,0.62
803,0.62
804,0.62
805,0.62
806,0.62
807,0.62
808,0.62
809,0.62
810,0.62
811,0.62
812,0.62
813,0.62
814,0.62
815,0.62
816,0.62
817,0.62
818,0.62
819,0.62
820,0.63
821,0.62
822,0.62
823,0.62
824,0.62
825,0.62
826,0.62
827,0.62
828,0.62
829,0.62
830,0.62
831,0.62
832,0.62
833,0.62
834,0.62
835,0.62
836,0.62
837,0.62
838,0.62
839,0.62
840,0.62
841,0.62
842,0.62
843,0.62
844,0.62
845,0.62
846,0.62
847,0.62
848,0.62
849,0.62
850,0.62
851,0.62
852,0.62
853,0.62
854,0.62
855,0.62
856,0.62
857,0.62
858,0.62
859,0.62
860,0.62
861,0.62
862,0.62
863,0.62
864,0.62
865,0.62
866,0.62
867,0.62
868,0.62
869,0.62
870,0.62
871,0.62
872,0.62
873,0.62
874,0.62
875,0.62
876,0.62
877,0.62
878,0.63
879,0.64
880,0.63
881,0.63
882,0.63
883,0.63
884,0.63
885,0.63
886,0.63
887,0.63
888,0.63
889,0.63
890,0.63
891,0.63
892,0.63
893,0.63
894,0.63
895,0.63
896,0.63
897,0.63
898,0.63
899,0.63
900,0.63
901,0.63
902,0.63
903,0.63
904,0.63
905,0.63
906,0.63
907,0.63
908,0.63
909,0.63
910,0.64
911,0.63
912,0.63
913,0.62
914,0.62
915,0.62
916,0.62
917,0.62
918,0.62
919,0.62
920,0.62
921,0.62
922,0.62
923,0.62
924,0.62
925,0.62
926,0.62
927,0.62
928,0.62
929,0.62
930,0.62
931,0.62
932,0.62
933,0.62
934,0.62
935,0.62
936,0.62
937,0.62
938,0.62
