time(s),mem(%)
0,undefined
1,0.24
2,0.36
3,0.44
4,0.49
5,0.54
6,0.56
7,0.56
8,0.56
9,0.56
10,0.56
11,0.56
12,0.56
13,0.56
14,0.56
15,0.56
16,0.56
17,0.56
18,0.56
19,0.56
20,0.56
21,0.56
22,0.56
23,0.56
24,0.56
25,0.56
26,0.56
27,0.56
28,0.56
29,0.56
30,0.56
31,0.56
32,0.56
33,0.56
34,0.56
35,0.56
36,0.56
37,0.56
38,0.56
39,0.57
40,0.58
41,0.58
42,0.59
43,0.57
44,0.57
45,0.57
46,0.57
47,0.57
48,0.57
49,0.57
50,0.57
51,0.57
52,0.57
53,0.57
54,0.57
55,0.57
56,0.57
57,0.57
58,0.57
59,0.57
60,0.57
61,0.57
62,0.57
63,0.57
64,0.57
65,0.57
66,0.57
67,0.57
68,0.60
69,0.60
70,0.60
71,0.59
72,0.59
73,0.58
74,0.58
75,0.58
76,0.58
77,0.58
78,0.58
79,0.58
80,0.58
81,0.58
82,0.58
83,0.58
84,0.58
85,0.58
86,0.58
87,0.58
88,0.58
89,0.58
90,0.58
91,0.58
92,0.60
93,0.60
94,0.61
95,0.61
96,0.61
97,0.60
98,0.60
99,0.60
100,0.60
101,0.60
102,0.60
103,0.60
104,0.60
105,0.60
106,0.60
107,0.60
108,0.60
109,0.60
110,0.60
111,0.60
112,0.60
113,0.60
114,0.60
115,0.60
116,0.60
117,0.60
118,0.60
119,0.60
120,0.60
121,0.60
122,0.60
123,0.60
124,0.60
125,0.60
126,0.60
127,0.60
128,0.62
129,0.62
130,0.62
131,0.62
132,0.62
133,0.65
134,0.62
135,0.62
136,0.62
137,0.62
138,0.62
139,0.62
140,0.62
141,0.62
142,0.62
143,0.62
144,0.62
145,0.62
146,0.62
147,0.62
148,0.62
149,0.62
150,0.62
151,0.62
152,0.62
153,0.62
154,0.62
155,0.62
156,0.62
157,0.62
158,0.65
159,0.64
160,0.64
161,0.64
162,0.65
163,0.66
164,0.64
165,0.64
166,0.64
167,0.64
168,0.64
169,0.64
170,0.64
171,0.64
172,0.64
173,0.64
174,0.64
175,0.64
176,0.64
177,0.64
178,0.64
179,0.64
180,0.64
181,0.64
182,0.66
183,0.65
184,0.66
185,0.66
186,0.67
187,0.65
188,0.65
189,0.65
190,0.65
191,0.65
192,0.65
193,0.65
194,0.65
195,0.65
196,0.65
197,0.65
198,0.65
199,0.65
200,0.65
201,0.65
202,0.65
203,0.65
204,0.65
205,0.65
206,0.65
207,0.65
208,0.65
209,0.65
210,0.65
211,0.65
212,0.65
213,0.65
214,0.65
215,0.65
216,0.65
217,0.65
218,0.67
219,0.67
220,0.67
221,0.67
222,0.67
223,0.69
224,0.67
225,0.67
226,0.67
227,0.67
228,0.67
229,0.67
230,0.67
231,0.67
232,0.67
233,0.67
234,0.67
235,0.67
236,0.67
237,0.67
238,0.67
239,0.67
240,0.67
241,0.67
242,0.67
243,0.67
244,0.67
245,0.67
246,0.67
247,0.67
248,0.70
249,0.70
250,0.70
251,0.69
252,0.69
253,0.71
254,0.68
255,0.68
256,0.68
257,0.68
258,0.68
259,0.68
260,0.68
261,0.68
262,0.68
263,0.68
264,0.68
265,0.68
266,0.68
267,0.68
268,0.68
269,0.68
270,0.68
271,0.68
272,0.71
273,0.70
274,0.70
275,0.71
276,0.71
277,0.73
278,0.70
279,0.70
280,0.70
281,0.70
282,0.70
283,0.70
284,0.70
285,0.70
286,0.70
287,0.70
288,0.70
289,0.70
290,0.70
291,0.70
292,0.70
293,0.70
294,0.70
295,0.70
296,0.70
297,0.70
298,0.70
299,0.70
300,0.70
301,0.70
302,0.70
303,0.70
304,0.70
305,0.70
306,0.70
307,0.70
308,0.70
309,0.70
310,0.70
311,0.70
312,0.70
313,0.70
314,0.70
315,0.70
316,0.70
317,0.70
318,0.70
319,0.70
320,0.70
321,0.70
322,0.70
323,0.70
324,0.70
325,0.70
326,0.70
327,0.70
328,0.72
329,0.71
330,0.72
331,0.72
332,0.72
333,0.72
334,0.74
335,0.72
336,0.72
337,0.72
338,0.72
339,0.72
340,0.72
341,0.72
342,0.72
343,0.72
344,0.72
345,0.72
346,0.72
347,0.72
348,0.72
349,0.72
350,0.72
351,0.72
352,0.72
353,0.72
354,0.72
355,0.72
356,0.72
357,0.72
358,0.72
359,0.72
360,0.72
361,0.72
362,0.75
363,0.75
364,0.75
365,0.74
366,0.74
367,0.76
368,0.73
369,0.73
370,0.73
371,0.73
372,0.73
373,0.73
374,0.73
375,0.73
376,0.73
377,0.73
378,0.73
379,0.73
380,0.73
381,0.73
382,0.73
383,0.73
384,0.73
385,0.73
386,0.73
387,0.73
388,0.73
389,0.73
390,0.73
391,0.73
392,0.73
393,0.73
394,0.73
395,0.73
396,0.73
397,0.73
398,0.73
399,0.73
400,0.73
401,0.73
402,0.73
403,0.73
404,0.73
405,0.76
406,0.76
407,0.76
408,0.76
409,0.76
410,0.76
411,0.75
412,0.75
413,0.75
414,0.75
415,0.75
416,0.75
417,0.75
418,0.75
419,0.75
420,0.75
421,0.76
422,0.77
423,0.77
424,0.77
425,0.77
426,0.77
427,0.79
428,0.77
429,0.77
430,0.77
431,0.77
432,0.77
433,0.77
434,0.77
435,0.77
436,0.77
437,0.77
438,0.77
439,0.77
440,0.77
441,0.77
442,0.77
443,0.77
444,0.77
445,0.77
446,0.77
447,0.77
448,0.77
449,0.77
450,0.77
451,0.77
452,0.77
453,0.77
454,0.77
455,0.77
456,0.77
457,0.77
458,0.77
459,0.77
460,0.77
461,0.77
462,0.77
463,0.77
464,0.77
465,0.79
466,0.79
467,0.79
468,0.79
469,0.79
470,0.81
471,0.78
472,0.78
473,0.78
474,0.78
475,0.78
476,0.78
477,0.78
478,0.78
479,0.78
480,0.78
481,0.80
482,0.81
483,0.81
484,0.81
485,0.81
486,0.81
487,0.82
488,0.80
489,0.80
490,0.80
491,0.80
492,0.80
493,0.80
494,0.80
495,0.80
496,0.80
497,0.80
498,0.80
499,0.80
500,0.80
501,0.80
502,0.80
503,0.80
504,0.80
505,0.80
506,0.80
507,0.80
508,0.80
509,0.80
510,0.80
511,0.80
512,0.80
513,0.80
514,0.80
515,0.80
516,0.80
517,0.80
518,0.80
519,0.80
520,0.80
521,0.80
522,0.80
523,0.80
524,0.80
525,0.82
526,0.82
527,0.82
528,0.82
529,0.82
530,0.84
531,0.82
532,0.82
533,0.82
534,0.82
535,0.82
536,0.82
537,0.82
538,0.82
539,0.82
540,0.82
541,0.83
542,0.84
543,0.84
544,0.85
545,0.84
546,0.84
547,0.85
548,0.83
549,0.83
550,0.83
551,0.83
552,0.83
553,0.83
554,0.83
555,0.83
556,0.83
557,0.83
558,0.83
559,0.83
560,0.83
561,0.83
562,0.83
563,0.83
564,0.83
565,0.83
566,0.83
567,0.83
568,0.83
569,0.83
570,0.83
571,0.83
572,0.83
573,0.83
574,0.83
575,0.83
576,0.83
577,0.83
578,0.83
579,0.83
580,0.83
581,0.83
582,0.83
583,0.83
584,0.83
585,0.86
586,0.85
587,0.86
588,0.85
589,0.86
590,0.86
591,0.85
592,0.85
593,0.85
594,0.85
595,0.85
596,0.85
597,0.85
598,0.85
599,0.85
600,0.85
601,0.86
602,0.87
603,0.87
604,0.87
605,0.87
606,0.87
607,0.89
608,0.87
609,0.87
610,0.87
611,0.87
612,0.87
613,0.87
614,0.87
615,0.87
616,0.87
617,0.87
618,0.87
619,0.87
620,0.87
621,0.87
622,0.87
623,0.87
624,0.87
625,0.87
626,0.87
627,0.87
628,0.87
629,0.87
630,0.87
631,0.87
632,0.87
633,0.87
634,0.87
635,0.87
636,0.87
637,0.87
638,0.89
639,0.88
640,0.89
641,0.89
642,0.89
643,0.89
644,0.91
645,0.88
646,0.88
647,0.88
648,0.88
649,0.88
650,0.88
651,0.88
652,0.88
653,0.88
654,0.88
655,0.88
656,0.88
657,0.88
658,0.88
659,0.88
660,0.88
661,0.90
662,0.91
663,0.91
664,0.91
665,0.90
666,0.91
667,0.91
668,0.90
669,0.90
670,0.90
671,0.90
672,0.90
673,0.90
674,0.90
675,0.90
676,0.90
677,0.90
678,0.90
679,0.90
680,0.90
681,0.90
682,0.90
683,0.90
684,0.90
685,0.90
686,0.90
687,0.90
688,0.90
689,0.90
690,0.90
691,0.90
692,0.90
693,0.90
694,0.90
695,0.90
696,0.90
697,0.90
698,0.91
699,0.91
700,0.91
701,0.92
702,0.92
703,0.92
704,0.94
705,0.91
706,0.91
707,0.91
708,0.91
709,0.91
710,0.91
711,0.91
712,0.91
713,0.91
714,0.91
715,0.91
716,0.91
717,0.91
718,0.91
719,0.91
720,0.91
721,0.93
722,0.94
723,0.94
724,0.94
725,0.94
726,0.94
727,0.95
728,0.93
729,0.93
730,0.93
731,0.93
732,0.93
733,0.93
734,0.93
735,0.93
736,0.93
737,0.93
738,0.93
739,0.93
740,0.93
741,0.93
742,0.93
743,0.93
744,0.93
745,0.93
746,0.93
747,0.93
748,0.93
749,0.93
750,0.93
751,0.93
752,0.93
753,0.93
754,0.93
755,0.93
756,0.93
757,0.93
758,0.95
759,0.96
760,0.95
761,0.95
762,0.95
763,0.96
764,0.97
765,0.94
766,0.94
767,0.94
768,0.94
769,0.94
770,0.94
771,0.94
772,0.94
773,0.94
774,0.94
775,0.94
776,0.94
777,0.94
778,0.94
779,0.94
780,0.94
781,0.96
782,0.97
783,0.97
784,0.97
785,0.97
786,0.97
787,0.99
788,0.96
789,0.96
790,0.96
791,0.96
792,0.96
793,0.96
794,0.96
795,0.96
796,0.96
797,0.96
798,0.96
799,0.96
800,0.96
801,0.96
802,0.96
803,0.96
804,0.96
805,0.96
806,0.96
807,0.96
808,0.96
809,0.96
810,0.96
811,0.96
812,0.96
813,0.96
814,0.96
815,0.96
816,0.96
817,0.96
818,0.98
819,0.98
820,0.98
821,0.99
822,0.99
823,0.99
824,1.00
825,0.98
826,0.98
827,0.98
828,0.98
829,0.98
830,0.98
831,0.98
832,0.98
833,0.98
834,0.98
835,0.98
836,0.98
837,0.98
838,0.98
839,0.98
840,0.98
841,1.00
842,1.01
843,1.01
844,1.01
845,1.00
846,1.00
847,1.01
848,0.99
849,0.99
850,0.99
851,0.99
852,0.99
853,0.99
854,0.99
855,0.99
856,0.99
857,0.99
858,0.99
859,0.99
860,0.99
861,0.99
862,0.99
863,0.99
864,0.99
865,0.99
866,0.99
867,0.99
868,0.99
869,0.99
870,0.99
871,0.99
872,0.99
873,0.99
874,0.99
875,0.99
876,0.99
877,0.99
878,1.01
879,1.01
880,1.01
881,1.02
882,1.02
883,1.02
884,1.04
885,1.01
886,1.01
887,1.01
888,1.01
889,1.01
890,1.01
891,1.01
892,1.01
893,1.01
894,1.01
895,1.01
896,1.01
897,1.01
898,1.01
899,1.01
900,1.01
901,1.03
902,1.04
903,1.04
904,1.04
905,1.03
906,1.04
907,1.05
908,1.03
909,1.03
910,1.03
911,1.03
912,1.03
913,1.03
914,1.03
915,1.03
916,1.03
917,1.03
918,1.03
919,1.03
920,1.03
921,1.03
922,1.03
923,1.03
924,1.03
925,1.03
926,1.03
927,1.03
928,1.03
929,1.03
930,1.03
931,1.03
932,1.03
933,1.03
934,1.03
935,1.03
936,1.03
